U[m/s],Uc(P5-model) [m/s],Uc(Mean-model) [m/s],Uc(P95-model) [m/s]
1.0,0.02,0.06,0.1
3.0,0.11,0.15,0.2
5.0,0.2,0.25,0.3
7.0,0.3,0.35,0.39
9.0,0.4,0.45,0.49
11.0,0.5,0.54,0.59
13.0,0.6,0.64,0.69
15.0,0.7,0.74,0.79
17.0,0.8,0.84,0.89
19.0,0.89,0.94,0.99
21.0,0.99,1.04,1.09
23.0,1.09,1.14,1.19
25.0,1.19,1.24,1.28
27.0,1.29,1.33,1.38
29.0,1.38,1.43,1.48
31.0,1.48,1.53,1.57
33.0,1.57,1.62,1.67
35.0,1.67,1.72,1.76
37.0,1.76,1.81,1.86
39.0,1.86,1.9,1.95
41.0,1.95,2.0,2.04
